RESNUM	RES	VL-XT	VSL2B	VL3	IUPred-S	IUPred-L	PONDRFIT	FITERROR	MDP	MDPERROR	ANCHOR2
000001	M	0.964291	0.990678	1.048511	0.9989	0.9308	0.9890	0.0170	0.9870	0.0356	0.9982
000002	K	0.967383	0.990418	1.048279	0.9982	0.9287	0.9970	0.0040	0.9883	0.0360	0.9980
000003	R	0.969845	0.990367	1.047775	0.9971	0.9249	0.9980	0.0040	0.9879	0.0366	0.9980
000004	P	0.952866	0.990410	1.047487	0.9904	0.8493	0.9910	0.0130	0.9703	0.0608	0.9979
000005	K	0.957032	0.990272	1.047266	0.9796	0.8828	0.9940	0.0080	0.9751	0.0494	0.9978
000006	L	0.923478	0.990015	1.047117	0.9447	0.8853	0.9860	0.0180	0.9627	0.0520	0.9979
000007	K	0.905136	0.990036	1.046875	0.9423	0.8894	0.9820	0.0170	0.9593	0.0536	0.9976
000008	K	0.889562	0.990093	1.046699	0.9316	0.8279	0.9790	0.0190	0.9442	0.0713	0.9974
000009	A	0.876531	0.990087	1.046541	0.9257	0.8343	0.9800	0.0170	0.9422	0.0717	0.9970
000010	S	0.846398	0.989824	1.046399	0.8556	0.7843	0.9760	0.0290	0.9164	0.0930	0.9965
000011	K	0.830550	0.989586	1.046236	0.8488	0.7982	0.9890	0.0140	0.9171	0.0943	0.9964
000012	R	0.819598	0.989602	1.046189	0.8242	0.7982	0.9850	0.0160	0.9105	0.0988	0.9962
000013	M	0.807809	0.989559	1.046363	0.8158	0.7951	0.9810	0.0210	0.9059	0.1019	0.9961
000014	T	0.805241	0.989195	1.046700	0.8200	0.7415	0.9680	0.0370	0.8951	0.1114	0.9954
000015	C	0.839401	0.988951	1.047181	0.8283	0.7209	0.9640	0.0410	0.8982	0.1115	0.9953
000016	H	0.860111	0.989017	1.047570	0.7644	0.6948	0.9400	0.0710	0.8827	0.1235	0.9951
000017	K	0.873816	0.988167	1.047898	0.8350	0.7755	0.9230	0.0920	0.9073	0.0915	0.9936
000018	R	0.889728	0.987547	1.048103	0.7688	0.7982	0.9210	0.0960	0.9023	0.0981	0.9926
000019	Y	0.921888	0.986692	1.048419	0.7724	0.8013	0.9110	0.1120	0.9069	0.0965	0.9918
000020	K	0.934164	0.985919	1.048787	0.8158	0.8085	0.8960	0.1320	0.9149	0.0864	0.9909
000021	I	0.950048	0.985831	1.049198	0.8311	0.7595	0.8940	0.1380	0.9115	0.0965	0.9898
000022	Q	0.966306	0.985472	1.049519	0.8283	0.7628	0.8920	0.1360	0.9141	0.0974	0.9882
000023	K	0.970593	0.985235	1.049714	0.7724	0.7628	0.8870	0.1430	0.9046	0.1079	0.9869
000024	K	0.969490	0.984515	1.049672	0.8001	0.7415	0.8840	0.1460	0.9049	0.1077	0.9857
000025	V	0.966282	0.984312	1.049383	0.8242	0.7331	0.8940	0.1350	0.9085	0.1057	0.9835
000026	R	0.971099	0.982581	1.048760	0.8488	0.8162	0.8950	0.1300	0.9271	0.0809	0.9792
000027	E	0.973343	0.982540	1.048062	0.8074	0.7916	0.8950	0.1310	0.9163	0.0939	0.9730
000028	H	0.975278	0.982733	1.047313	0.8001	0.7982	0.9000	0.1210	0.9173	0.0938	0.9740
000029	H	0.979868	0.982619	1.046471	0.7912	0.7916	0.9090	0.1080	0.9167	0.0972	0.9719
000030	R	0.981609	0.982086	1.045380	0.8556	0.8765	0.9080	0.1090	0.9415	0.0668	0.9657
000031	K	0.982304	0.982015	1.044105	0.8350	0.8741	0.9050	0.1100	0.9371	0.0718	0.9609
000032	L	0.986710	0.982808	1.043003	0.8857	0.9126	0.9080	0.1050	0.9531	0.0553	0.9549
000033	R	0.991110	0.982942	1.041945	0.8823	0.9211	0.9040	0.1070	0.9540	0.0557	0.9425
000034	K	0.995262	0.982756	1.040923	0.8677	0.9211	0.8990	0.1070	0.9511	0.0600	0.9254
000035	E	0.995452	0.982762	1.039562	0.8677	0.9211	0.8930	0.1050	0.9499	0.0606	0.9048
000036	A	0.995382	0.982110	1.037883	0.9009	0.9381	0.8890	0.1110	0.9572	0.0530	0.8984
000037	K	0.995184	0.981952	1.035756	0.8920	0.9457	0.8760	0.1240	0.9545	0.0564	0.8858
000038	K	0.998106	0.981661	1.033214	0.9068	0.9519	0.8720	0.1290	0.9572	0.0547	0.8705
000039	R	0.998360	0.980898	1.030342	0.9040	0.9126	0.8680	0.1350	0.9490	0.0577	0.8393
000040	G	0.998077	0.980673	1.027348	0.8886	0.9126	0.8630	0.1390	0.9451	0.0602	0.8155
000041	H	0.998087	0.979800	1.024342	0.8350	0.9151	0.8560	0.1470	0.9347	0.0714	0.8035
000042	K	0.997784	0.979403	1.021077	0.8391	0.9126	0.8490	0.1530	0.9332	0.0711	0.7733
000043	K	0.997122	0.978805	1.017377	0.8746	0.9287	0.8450	0.1550	0.9403	0.0634	0.7399
000044	P	0.997062	0.978240	1.012978	0.8626	0.9381	0.8390	0.1580	0.9381	0.0660	0.7222
000045	R	0.996648	0.977678	1.007838	0.8391	0.8894	0.8430	0.1560	0.9256	0.0709	0.7081
000046	K	0.948223	0.977248	1.001961	0.8857	0.9013	0.8390	0.1580	0.9255	0.0559	0.7133
000047	D	0.887739	0.976723	0.995498	0.8488	0.8991	0.8350	0.1590	0.9072	0.0601	0.7028
000048	P	0.886901	0.976250	0.988737	0.8424	0.8872	0.8320	0.1550	0.9023	0.0604	0.7003
000049	G	0.880991	0.976104	0.981414	0.8158	0.8462	0.8410	0.1410	0.8903	0.0654	0.7123
000050	V	0.862877	0.976341	0.973320	0.7951	0.7916	0.8430	0.1390	0.8738	0.0757	0.7444
000051	P	0.846728	0.974890	0.964172	0.7573	0.7951	0.8230	0.1580	0.8602	0.0820	0.7756
000052	N	0.827261	0.975522	0.954652	0.6984	0.7547	0.8320	0.1500	0.8405	0.0992	0.8048
000053	S	0.805931	0.975044	0.945287	0.6944	0.7331	0.8380	0.1400	0.8320	0.1022	0.8316
000054	A	0.787706	0.974702	0.936250	0.6756	0.7163	0.8280	0.1510	0.8198	0.1081	0.8608
000055	P	0.816598	0.974873	0.927453	0.6412	0.6183	0.8210	0.1480	0.7999	0.1328	0.8747
000056	F	0.861636	0.975601	0.918795	0.6219	0.6136	0.8310	0.1400	0.8038	0.1391	0.8953
000057	K	0.846490	0.976486	0.910425	0.5549	0.6089	0.8200	0.1180	0.7862	0.1535	0.8963
000058	E	0.836949	0.976766	0.901839	0.5667	0.6227	0.8200	0.1090	0.7875	0.1462	0.8964
000059	A	0.839002	0.977401	0.892836	0.5473	0.5992	0.8260	0.1150	0.7802	0.1550	0.9043
000060	L	0.838632	0.978087	0.883618	0.5473	0.5382	0.8360	0.1140	0.7702	0.1676	0.9038
000061	L	0.849143	0.978534	0.874544	0.5900	0.5758	0.8220	0.1210	0.7817	0.1487	0.8955
000062	R	0.860441	0.978392	0.865789	0.5084	0.5342	0.8030	0.1180	0.7584	0.1757	0.8680
000063	E	0.872087	0.979301	0.857594	0.4879	0.4652	0.7930	0.0960	0.7425	0.1959	0.8272
000064	A	0.876981	0.979239	0.850065	0.4749	0.4652	0.8200	0.0830	0.7444	0.2001	0.8072
000065	E	0.889308	0.979386	0.843362	0.4245	0.4801	0.8410	0.0650	0.7429	0.2111	0.7710
000066	L	0.902048	0.979873	0.836963	0.3885	0.4582	0.8590	0.0610	0.7375	0.2274	0.7553
000067	R	0.915013	0.980726	0.830705	0.4600	0.5456	0.8520	0.0620	0.7640	0.1924	0.7099
000068	K	0.930946	0.980021	0.824533	0.4600	0.5419	0.8560	0.0600	0.7655	0.1951	0.6782
000069	Q	0.945110	0.980417	0.818960	0.4879	0.4940	0.8820	0.0590	0.7681	0.2023	0.6455
000070	R	0.955021	0.981439	0.814239	0.4967	0.5098	0.8920	0.0550	0.7749	0.1992	0.6179
000071	L	0.965238	0.982348	0.810084	0.4749	0.5665	0.9100	0.0480	0.7849	0.1965	0.5986
000072	E	0.972395	0.983511	0.806273	0.5173	0.6322	0.9040	0.0460	0.8026	0.1743	0.5639
000073	E	0.987566	0.983494	0.802514	0.5043	0.6269	0.9050	0.0420	0.8016	0.1813	0.5632
000074	L	0.990546	0.984307	0.798834	0.5229	0.6269	0.9140	0.0340	0.8063	0.1779	0.5788
000075	K	0.993606	0.984975	0.795601	0.5296	0.5758	0.9030	0.0430	0.7971	0.1851	0.5476
000076	Q	0.996387	0.985443	0.793126	0.5374	0.5758	0.9140	0.0300	0.8004	0.1850	0.5447
000077	Q	0.996456	0.986083	0.791497	0.5374	0.6482	0.9060	0.0360	0.8110	0.1712	0.5279
000078	Q	0.999068	0.986137	0.790680	0.5331	0.6427	0.9050	0.0350	0.8094	0.1736	0.5256
000079	K	0.998979	0.985885	0.790389	0.5296	0.6427	0.8930	0.0460	0.8067	0.1734	0.5230
000080	L	0.998857	0.985723	0.790892	0.5084	0.6375	0.8950	0.0430	0.8027	0.1800	0.5216
000081	D	0.998733	0.985906	0.791605	0.5084	0.5620	0.8700	0.0590	0.7861	0.1913	0.4918
000082	R	0.998766	0.985433	0.792966	0.5549	0.6136	0.8760	0.0520	0.8036	0.1705	0.4763
000083	Q	0.998980	0.985370	0.794445	0.5229	0.6269	0.8780	0.0580	0.8012	0.1765	0.4683
000084	K	0.999186	0.985428	0.796014	0.5229	0.6620	0.8690	0.0700	0.8058	0.1705	0.4550
000085	E	0.999138	0.985060	0.797531	0.5762	0.7547	0.8530	0.0870	0.8277	0.1439	0.4365
000086	L	0.999212	0.984679	0.799529	0.5846	0.7505	0.8680	0.0830	0.8311	0.1423	0.4404
000087	E	0.999295	0.984221	0.802222	0.6079	0.6620	0.8340	0.0950	0.8150	0.1469	0.4169
000088	K	0.999364	0.983596	0.805401	0.5941	0.6576	0.8300	0.0960	0.8117	0.1507	0.4096
000089	K	0.992667	0.982331	0.808467	0.5374	0.6851	0.8440	0.0890	0.8084	0.1603	0.4029
000090	R	0.975957	0.981683	0.811756	0.5331	0.6851	0.8320	0.1060	0.8033	0.1579	0.4005
000091	K	0.952679	0.980788	0.815356	0.6255	0.7628	0.8240	0.1260	0.8269	0.1185	0.3988
000092	L	0.938230	0.980208	0.819924	0.6255	0.7036	0.8540	0.1090	0.8203	0.1240	0.4107
000093	E	0.918026	0.979815	0.824782	0.6334	0.6906	0.8410	0.1040	0.8145	0.1204	0.4053
000094	T	0.914515	0.978669	0.828359	0.5900	0.7163	0.8330	0.0880	0.8101	0.1274	0.4043
000095	N	0.894304	0.976316	0.829933	0.5762	0.7036	0.8120	0.0880	0.7987	0.1294	0.4065
000096	P	0.868388	0.973394	0.829334	0.6174	0.7080	0.7680	0.0950	0.7941	0.1142	0.4222
000097	D	0.815649	0.970283	0.828340	0.6516	0.7718	0.7670	0.1040	0.8008	0.0948	0.4274
000098	I	0.797875	0.968225	0.827291	0.6474	0.7755	0.7510	0.1330	0.7945	0.0959	0.4466
000099	K	0.783812	0.964858	0.826822	0.6516	0.6661	0.6760	0.1490	0.7615	0.1116	0.4438
000100	P	0.730190	0.961935	0.826921	0.6516	0.6661	0.6280	0.1210	0.7441	0.1174	0.4535
000101	S	0.667719	0.959953	0.827179	0.5992	0.5854	0.6170	0.1230	0.7095	0.1381	0.4586
000102	N	0.617894	0.958165	0.827699	0.6035	0.4831	0.6060	0.0930	0.6827	0.1597	0.4706
000103	V	0.543023	0.954751	0.827662	0.6124	0.5419	0.5730	0.0760	0.6755	0.1587	0.4814
000104	E	0.456522	0.951652	0.827441	0.5374	0.5533	0.4780	0.0760	0.6340	0.1871	0.4909
000105	P	0.377161	0.950163	0.826646	0.5374	0.5456	0.4470	0.0770	0.6140	0.2053	0.5021
000106	M	0.324636	0.947632	0.825275	0.5229	0.5456	0.5340	0.0830	0.6166	0.2078	0.5050
000107	E	0.243062	0.942283	0.823693	0.4879	0.5139	0.5360	0.0900	0.5912	0.2303	0.4854
000108	K	0.167155	0.933743	0.821993	0.4879	0.4979	0.5930	0.1070	0.5836	0.2481	0.4734
000109	E	0.134256	0.929199	0.819928	0.5253	0.5758	0.6030	0.1130	0.5979	0.2516	0.4653
000110	F	0.101687	0.915117	0.817242	0.5043	0.5707	0.6160	0.1080	0.5875	0.2595	0.4662
000111	G	0.060947	0.912897	0.814033	0.4600	0.5419	0.5730	0.0970	0.5605	0.2734	0.4542
000112	L	0.028537	0.906526	0.810879	0.4556	0.5419	0.5790	0.1160	0.5538	0.2819	0.4449
000113	C	0.026704	0.894001	0.807169	0.4420	0.5296	0.5440	0.1210	0.5406	0.2798	0.4255
000114	K	0.079795	0.879853	0.801721	0.4749	0.6089	0.4980	0.1090	0.5572	0.2597	0.4075
000115	T	0.083489	0.862610	0.796038	0.4825	0.6183	0.4980	0.1050	0.5567	0.2542	0.3955
000116	E	0.102457	0.857685	0.790461	0.4556	0.5854	0.5120	0.1170	0.5506	0.2464	0.3870
000117	N	0.140116	0.851273	0.785921	0.4600	0.5951	0.5610	0.1480	0.5656	0.2321	0.3853
000118	K	0.180404	0.845173	0.780802	0.4556	0.5342	0.5540	0.1810	0.5584	0.2182	0.3879
000119	A	0.191175	0.840684	0.774911	0.4420	0.4619	0.5270	0.1980	0.5396	0.2172	0.3924
000120	K	0.204254	0.835944	0.769181	0.3885	0.3872	0.5120	0.2070	0.5162	0.2223	0.3982
000121	S	0.217372	0.828561	0.763557	0.3847	0.4801	0.5410	0.2320	0.5359	0.2101	0.4031
000122	G	0.278478	0.820043	0.757969	0.2963	0.4725	0.5590	0.2460	0.5307	0.2074	0.4115
000123	K	0.302866	0.802259	0.750770	0.3311	0.4725	0.5440	0.2460	0.5339	0.1904	0.4197
000124	Q	0.373829	0.790371	0.743140	0.4149	0.5665	0.5350	0.2220	0.5706	0.1540	0.4293
000125	N	0.362357	0.774939	0.735314	0.3399	0.5620	0.5130	0.2050	0.5480	0.1662	0.4293
000126	S	0.332764	0.755497	0.728743	0.3399	0.5017	0.5010	0.2020	0.5266	0.1668	0.4233
000127	K	0.291602	0.731089	0.723813	0.3359	0.4409	0.4760	0.2080	0.4999	0.1722	0.4187
000128	K	0.279858	0.698545	0.719841	0.2820	0.4220	0.4070	0.1880	0.4682	0.1791	0.4159
000129	L	0.267003	0.677612	0.714456	0.2292	0.4051	0.3580	0.1830	0.4419	0.1889	0.4155
000130	Y	0.253708	0.638522	0.705984	0.2531	0.4186	0.3380	0.1860	0.4347	0.1782	0.4135
000131	C	0.190126	0.583788	0.694801	0.2292	0.4256	0.2990	0.1750	0.4037	0.1847	0.4090
000132	Q	0.107251	0.566760	0.683082	0.2292	0.3740	0.2990	0.2060	0.3766	0.1960	0.4079
000133	E	0.027030	0.566189	0.670384	0.2432	0.3215	0.3180	0.2250	0.3577	0.2108	0.4097
000134	L	0.015107	0.559990	0.658648	0.1921	0.2609	0.3300	0.2260	0.3361	0.2174	0.4132
000135	K	0.004932	0.515198	0.649471	0.1456	0.2575	0.3460	0.2370	0.3197	0.2164	0.4141
000136	K	0.007984	0.476990	0.644169	0.0991	0.1942	0.3530	0.2580	0.2959	0.2196	0.4153
000137	V	0.075989	0.487685	0.640380	0.0991	0.1424	0.3670	0.2660	0.3021	0.2125	0.4190
000138	I	0.154410	0.471440	0.634400	0.0723	0.1449	0.3530	0.2570	0.3050	0.2004	0.4242
000139	E	0.238439	0.441905	0.625689	0.0502	0.1298	0.3260	0.2410	0.3020	0.1924	0.4262
000140	A	0.312807	0.426901	0.614124	0.0789	0.1702	0.3300	0.1990	0.3222	0.1726	0.4306
000141	S	0.393737	0.451884	0.601015	0.0935	0.2328	0.2760	0.1620	0.3415	0.1632	0.4292
000142	D	0.449782	0.440501	0.586342	0.1456	0.3356	0.2200	0.1250	0.3630	0.1483	0.4160
000143	V	0.474364	0.419173	0.572766	0.1566	0.2715	0.1900	0.1020	0.3474	0.1522	0.4068
000144	V	0.486231	0.401968	0.560884	0.1805	0.2752	0.1710	0.0940	0.3459	0.1484	0.3984
000145	L	0.510027	0.371855	0.552618	0.1635	0.2399	0.1670	0.0930	0.3341	0.1560	0.3948
000146	E	0.453852	0.370152	0.543935	0.1732	0.2399	0.1530	0.0830	0.3224	0.1451	0.3983
000147	V	0.385360	0.351011	0.534117	0.1150	0.1611	0.1750	0.0970	0.2869	0.1488	0.4007
000148	L	0.321019	0.350876	0.521879	0.1456	0.2292	0.1970	0.1050	0.2942	0.1236	0.4114
000149	D	0.304655	0.341206	0.510852	0.1292	0.2951	0.1950	0.0910	0.2960	0.1200	0.4300
000150	A	0.286004	0.354770	0.503422	0.1566	0.2436	0.1960	0.0810	0.2900	0.1144	0.4169
000151	R	0.290107	0.350305	0.498024	0.1766	0.2575	0.1900	0.0710	0.2938	0.1086	0.3919
000152	D	0.328343	0.330943	0.493642	0.1178	0.2575	0.1890	0.0680	0.2862	0.1193	0.3666
000153	P	0.351015	0.322912	0.489968	0.1178	0.2328	0.1830	0.0600	0.2829	0.1217	0.3372
000154	L	0.370475	0.324196	0.488866	0.1698	0.2129	0.1820	0.0680	0.2914	0.1149	0.3080
000155	G	0.414251	0.321525	0.487406	0.1878	0.2094	0.1750	0.0710	0.2992	0.1191	0.2720
000156	C	0.471259	0.314906	0.484621	0.1732	0.2715	0.1580	0.0690	0.3122	0.1290	0.2415
000157	R	0.528994	0.301863	0.479534	0.1240	0.2680	0.1360	0.0580	0.3065	0.1545	0.2222
000158	C	0.534448	0.283980	0.471694	0.1667	0.3182	0.1220	0.0410	0.3161	0.1489	0.2033
000159	P	0.488135	0.283426	0.461257	0.2333	0.3807	0.1130	0.0370	0.3266	0.1313	0.1923
000160	Q	0.436444	0.309200	0.450961	0.2209	0.3704	0.1100	0.0390	0.3164	0.1205	0.1824
000161	V	0.381895	0.325571	0.445281	0.2602	0.3840	0.1120	0.0410	0.3181	0.1085	0.1752
000162	E	0.350912	0.346738	0.444742	0.2602	0.3215	0.1090	0.0370	0.3055	0.1033	0.1655
000163	E	0.313824	0.364308	0.446697	0.2385	0.2645	0.1120	0.0380	0.2900	0.1046	0.1613
000164	A	0.260191	0.381170	0.450542	0.1456	0.1791	0.1140	0.0360	0.2550	0.1238	0.1635
000165	I	0.194532	0.390046	0.452930	0.1732	0.1702	0.1160	0.0360	0.2495	0.1252	0.1679
000166	V	0.118498	0.393044	0.452171	0.1178	0.1229	0.1170	0.0360	0.2203	0.1441	0.1775
000167	Q	0.058258	0.391171	0.446064	0.1205	0.2002	0.1310	0.0430	0.2246	0.1441	0.1904
000168	S	0.044617	0.383438	0.435615	0.0813	0.1969	0.1480	0.0520	0.2150	0.1465	0.2063
000169	G	0.037084	0.366656	0.424331	0.1349	0.2817	0.1550	0.0590	0.2332	0.1360	0.2233
000170	Q	0.041165	0.350713	0.414049	0.1088	0.2575	0.1510	0.0560	0.2206	0.1324	0.2396
000171	K	0.057857	0.336277	0.408422	0.1117	0.1942	0.1400	0.0530	0.2082	0.1246	0.2633
000172	K	0.050296	0.315001	0.405455	0.1698	0.1942	0.1150	0.0430	0.2083	0.1194	0.2930
000173	L	0.050225	0.284674	0.405357	0.1041	0.2193	0.1030	0.0400	0.1944	0.1229	0.3304
000174	V	0.050080	0.252044	0.405680	0.0621	0.2164	0.0910	0.0340	0.1796	0.1265	0.3596
000175	L	0.049235	0.241971	0.407926	0.0965	0.2399	0.0850	0.0290	0.1868	0.1239	0.3825
000176	I	0.046695	0.242138	0.409958	0.1495	0.3182	0.0830	0.0280	0.2083	0.1285	0.3947
000177	L	0.044437	0.249005	0.412703	0.2041	0.3053	0.0790	0.0230	0.2158	0.1265	0.4019
000178	N	0.043444	0.275119	0.415357	0.2167	0.3053	0.0870	0.0190	0.2238	0.1274	0.4055
000179	K	0.031225	0.314886	0.420101	0.1380	0.3053	0.1000	0.0230	0.2182	0.1373	0.4030
000180	S	0.008867	0.351029	0.424028	0.1349	0.2364	0.1070	0.0260	0.2104	0.1432	0.4033
000181	D	0.006877	0.385316	0.426329	0.1349	0.1759	0.1160	0.0210	0.2076	0.1496	0.4119
000182	L	0.004397	0.409394	0.428348	0.0884	0.1852	0.1350	0.0350	0.2084	0.1585	0.4228
000183	V	0.002926	0.436963	0.432321	0.0567	0.1275	0.1280	0.0320	0.1975	0.1731	0.4214
000184	P	0.002633	0.474381	0.435939	0.0991	0.1251	0.1210	0.0380	0.2097	0.1786	0.4177
000185	K	0.002144	0.466631	0.437474	0.0909	0.1611	0.1400	0.0590	0.2163	0.1742	0.4214
000186	E	0.002185	0.448589	0.438325	0.0909	0.2164	0.1330	0.0650	0.2216	0.1691	0.4262
000187	N	0.002404	0.422802	0.443047	0.1380	0.2884	0.1250	0.0650	0.2367	0.1617	0.4285
000188	L	0.001898	0.395117	0.452358	0.2041	0.2817	0.1110	0.0560	0.2410	0.1558	0.4173
000189	E	0.001892	0.374795	0.466372	0.1958	0.2988	0.0870	0.0340	0.2374	0.1607	0.4068
000190	S	0.001883	0.342458	0.482222	0.1380	0.3019	0.0860	0.0300	0.2254	0.1646	0.3916
000191	W	0.002110	0.344506	0.498081	0.1602	0.2470	0.0950	0.0300	0.2244	0.1634	0.3794
000192	L	0.003154	0.347924	0.511171	0.1456	0.1881	0.1070	0.0380	0.2171	0.1671	0.3807
000193	N	0.002939	0.354958	0.520424	0.1732	0.1611	0.1270	0.0510	0.2233	0.1682	0.3896
000194	Y	0.002815	0.369165	0.527019	0.1921	0.2129	0.1530	0.0660	0.2429	0.1662	0.3894
000195	L	0.002421	0.385383	0.531778	0.1150	0.1671	0.1800	0.0850	0.2303	0.1764	0.3920
000196	K	0.002279	0.402803	0.539453	0.1240	0.1671	0.2160	0.1120	0.2419	0.1789	0.4008
000197	K	0.007222	0.420901	0.549973	0.1041	0.1671	0.2650	0.1550	0.2524	0.1855	0.4101
000198	E	0.009523	0.440505	0.564449	0.0965	0.1554	0.3160	0.1970	0.2637	0.1953	0.4212
000199	L	0.038916	0.414923	0.582405	0.1532	0.2399	0.3350	0.2070	0.2941	0.1767	0.4273
000200	P	0.069164	0.434336	0.603898	0.1602	0.2364	0.2870	0.1610	0.2985	0.1767	0.4310
000201	T	0.158386	0.460515	0.627640	0.1766	0.2470	0.2730	0.1480	0.3238	0.1676	0.4188
000202	V	0.248914	0.458594	0.649899	0.2558	0.3149	0.2590	0.1360	0.3645	0.1467	0.4069
000203	V	0.330594	0.429938	0.671037	0.3263	0.3774	0.2260	0.1220	0.3935	0.1386	0.4000
000204	F	0.412272	0.454230	0.690852	0.3225	0.3667	0.2080	0.1200	0.4091	0.1479	0.3934
000205	R	0.521623	0.501929	0.706673	0.3992	0.3631	0.2320	0.1320	0.4541	0.1479	0.3785
000206	A	0.626405	0.554054	0.718146	0.4749	0.4330	0.2690	0.1530	0.5126	0.1438	0.3643
000207	S	0.730368	0.611931	0.726163	0.4037	0.4330	0.2990	0.1670	0.5340	0.1653	0.3510
000208	T	0.807298	0.645500	0.734723	0.3939	0.4409	0.3510	0.1800	0.5622	0.1753	0.3381
000209	K	0.875273	0.670718	0.744915	0.4037	0.3740	0.3890	0.1560	0.5763	0.1968	0.3264
000210	P	0.875592	0.699128	0.754432	0.4879	0.4409	0.4250	0.1630	0.6139	0.1717	0.3136
000211	K	0.889013	0.728217	0.763497	0.3992	0.3872	0.4580	0.1700	0.6042	0.1968	0.3040
000212	D	0.910897	0.736010	0.769153	0.4078	0.3807	0.4510	0.1730	0.6093	0.2043	0.2961
000213	K	0.932782	0.737732	0.772786	0.4282	0.4409	0.4610	0.1910	0.6289	0.1952	0.2898
000214	G	0.928109	0.727096	0.772302	0.4781	0.5098	0.5010	0.1980	0.6527	0.1682	0.2850
000215	K	0.908150	0.719090	0.769692	0.5514	0.5901	0.4650	0.2220	0.6673	0.1479	0.2831
000216	I	0.902786	0.712946	0.763970	0.5473	0.5456	0.4860	0.2080	0.6597	0.1465	0.2860
000217	T	0.896192	0.695482	0.759260	0.5412	0.6136	0.4720	0.1960	0.6629	0.1405	0.2882
000218	K	0.905569	0.682211	0.752268	0.5173	0.4940	0.5180	0.2270	0.6450	0.1505	0.2908
000219	R	0.922400	0.675943	0.742215	0.5473	0.4940	0.5850	0.2140	0.6611	0.1425	0.2970
000220	V	0.926678	0.661784	0.727156	0.4749	0.4940	0.6260	0.2300	0.6518	0.1518	0.3028
000221	K	0.913151	0.650079	0.711358	0.4651	0.4725	0.5550	0.2150	0.6279	0.1553	0.3038
000222	A	0.858093	0.653318	0.697676	0.4556	0.4087	0.5400	0.2080	0.6022	0.1528	0.3046
000223	K	0.848832	0.648764	0.684398	0.4458	0.3215	0.5700	0.1860	0.5866	0.1696	0.3051
000224	K	0.854654	0.631927	0.669885	0.3847	0.2224	0.5830	0.1800	0.5578	0.2038	0.3042
000225	N	0.822373	0.605565	0.653297	0.2963	0.2224	0.5260	0.1880	0.5210	0.2062	0.3093
000226	A	0.723802	0.578284	0.635514	0.2122	0.2224	0.4500	0.1620	0.4703	0.1965	0.3161
000227	A	0.617027	0.532045	0.615291	0.2786	0.3117	0.3290	0.1240	0.4473	0.1444	0.3205
000228	P	0.510512	0.478140	0.592452	0.2865	0.3087	0.2610	0.1180	0.4062	0.1263	0.3219
000229	F	0.403016	0.424461	0.567573	0.2820	0.2364	0.2380	0.1140	0.3586	0.1192	0.3215
000230	R	0.312940	0.395800	0.542217	0.2657	0.1611	0.2230	0.1140	0.3168	0.1243	0.3153
000231	S	0.264433	0.358288	0.516358	0.2531	0.2164	0.2000	0.1040	0.3014	0.1085	0.3204
000232	E	0.168905	0.317053	0.490196	0.1958	0.1501	0.1660	0.0860	0.2479	0.1217	0.3306
000233	V	0.073283	0.308149	0.464178	0.2209	0.1162	0.1390	0.0660	0.2202	0.1331	0.3504
000234	C	0.004622	0.294502	0.438668	0.1566	0.1162	0.1350	0.0700	0.1910	0.1394	0.3746
000235	F	0.003539	0.275576	0.413456	0.1041	0.1184	0.1430	0.0810	0.1764	0.1327	0.4009
000236	G	0.003607	0.268131	0.390979	0.0991	0.0605	0.1510	0.0860	0.1623	0.1311	0.4140
000237	K	0.002558	0.279923	0.369854	0.1150	0.0749	0.1290	0.0710	0.1619	0.1248	0.4318
000238	E	0.001743	0.265561	0.350561	0.0771	0.0948	0.1040	0.0510	0.1489	0.1197	0.4107
000239	G	0.001666	0.255714	0.330492	0.0660	0.0817	0.0840	0.0390	0.1366	0.1160	0.3841
000240	L	0.001551	0.224782	0.310226	0.1060	0.0948	0.0630	0.0270	0.1334	0.1034	0.3571
000241	W	0.001424	0.197174	0.289738	0.0991	0.0909	0.0570	0.0200	0.1225	0.0950	0.3397
000242	K	0.002173	0.175028	0.269428	0.0567	0.0929	0.0440	0.0190	0.1068	0.0900	0.3538
000243	L	0.002723	0.184716	0.250493	0.0607	0.0734	0.0360	0.0140	0.1014	0.0872	0.3700
000244	L	0.003059	0.183797	0.232048	0.0858	0.0662	0.0360	0.0110	0.1011	0.0810	0.3996
000245	G	0.002072	0.177461	0.214941	0.1178	0.1115	0.0360	0.0100	0.1099	0.0739	0.4299
000246	G	0.002148	0.165925	0.200701	0.1205	0.1349	0.0400	0.0130	0.1107	0.0690	0.3958
000247	F	0.002283	0.188436	0.190202	0.1205	0.1349	0.0490	0.0180	0.1142	0.0690	0.3722
000248	Q	0.002484	0.189661	0.180140	0.0771	0.0948	0.0490	0.0190	0.0988	0.0673	0.3275
000249	E	0.002848	0.193538	0.170822	0.0744	0.0531	0.0520	0.0170	0.0911	0.0682	0.2915
000250	T	0.003366	0.213419	0.162894	0.0502	0.0531	0.0460	0.0120	0.0882	0.0740	0.2628
000251	C	0.003213	0.215383	0.158275	0.0490	0.0443	0.0420	0.0130	0.0854	0.0751	0.2353
000252	S	0.003259	0.199921	0.154889	0.0677	0.0851	0.0430	0.0150	0.0922	0.0665	0.2283
000253	K	0.003254	0.189160	0.150917	0.0376	0.0929	0.0430	0.0150	0.0862	0.0657	0.2375
000254	A	0.005698	0.169279	0.147924	0.0723	0.0985	0.0450	0.0140	0.0899	0.0565	0.2439
000255	I	0.008654	0.138940	0.147289	0.1088	0.1501	0.0460	0.0140	0.1000	0.0541	0.2553
000256	R	0.010408	0.122350	0.150057	0.0723	0.1501	0.0450	0.0140	0.0918	0.0530	0.2649
000257	V	0.011450	0.120783	0.155068	0.0723	0.1476	0.0480	0.0180	0.0926	0.0527	0.2663
000258	G	0.015348	0.120234	0.159692	0.1266	0.2328	0.0500	0.0160	0.1174	0.0710	0.2643
000259	V	0.019087	0.122211	0.164343	0.1240	0.1501	0.0530	0.0170	0.1055	0.0521	0.2731
000260	I	0.020275	0.149502	0.170349	0.1240	0.0888	0.0570	0.0180	0.1016	0.0521	0.2771
000261	G	0.022151	0.185873	0.177596	0.0813	0.0929	0.0670	0.0170	0.1044	0.0590	0.2750
000262	F	0.026133	0.208872	0.185072	0.0884	0.1424	0.0800	0.0160	0.1218	0.0633	0.2705
000263	P	0.026287	0.248494	0.191318	0.0909	0.0929	0.0880	0.0200	0.1231	0.0740	0.2500
000264	N	0.026795	0.294895	0.198647	0.0965	0.0929	0.1140	0.0290	0.1373	0.0866	0.2288
000265	V	0.028248	0.330205	0.207390	0.0723	0.1137	0.1350	0.0440	0.1478	0.0984	0.2143
000266	G	0.028857	0.359008	0.216958	0.1178	0.1852	0.1360	0.0380	0.1740	0.1015	0.2004
000267	K	0.027039	0.396091	0.227204	0.1205	0.1852	0.1580	0.0640	0.1857	0.1127	0.1921
000268	S	0.024640	0.431318	0.236798	0.1805	0.2164	0.1670	0.0690	0.2094	0.1203	0.1844
000269	S	0.048116	0.442886	0.245730	0.1844	0.1554	0.1990	0.0650	0.2125	0.1193	0.1818
000270	I	0.055467	0.452633	0.254033	0.2209	0.2224	0.2360	0.0680	0.2402	0.1156	0.1784
000271	I	0.065093	0.457020	0.263431	0.2483	0.2436	0.2350	0.0700	0.2521	0.1136	0.1740
000272	N	0.082401	0.458436	0.274598	0.2483	0.2436	0.2310	0.0590	0.2563	0.1098	0.1689
000273	S	0.098897	0.476707	0.284510	0.2748	0.2817	0.2500	0.0560	0.2778	0.1099	0.1659
000274	L	0.120088	0.470050	0.292474	0.2483	0.2541	0.2420	0.0770	0.2712	0.1037	0.1669
000275	K	0.135108	0.438586	0.297878	0.1844	0.2129	0.2030	0.0870	0.2453	0.0990	0.1701
000276	Q	0.141621	0.421596	0.303567	0.2602	0.2783	0.1890	0.0880	0.2658	0.0886	0.1773
000277	E	0.161620	0.406098	0.309828	0.2333	0.2002	0.1710	0.0780	0.2471	0.0863	0.1870
000278	Q	0.173677	0.388461	0.316401	0.2385	0.2064	0.1520	0.0540	0.2459	0.0826	0.1972
000279	M	0.204903	0.357443	0.322731	0.1602	0.2164	0.1450	0.0420	0.2344	0.0792	0.2112
000280	C	0.212009	0.344166	0.328593	0.1495	0.2193	0.1420	0.0390	0.2327	0.0788	0.2185
000281	N	0.218193	0.323826	0.334683	0.2167	0.2752	0.1350	0.0340	0.2506	0.0690	0.2249
000282	V	0.283838	0.315188	0.341276	0.2963	0.3667	0.1440	0.0420	0.2912	0.0715	0.2410
000283	G	0.319194	0.315924	0.346621	0.2657	0.2918	0.1420	0.0400	0.2802	0.0666	0.2603
000284	V	0.343069	0.318068	0.350559	0.2700	0.2328	0.1420	0.0400	0.2761	0.0726	0.2794
000285	S	0.353998	0.337510	0.352221	0.2820	0.3392	0.1320	0.0330	0.2994	0.0788	0.3005
000286	M	0.353039	0.362285	0.352946	0.2122	0.2609	0.1290	0.0320	0.2783	0.0869	0.3218
000287	G	0.369792	0.378767	0.352398	0.2385	0.2645	0.1320	0.0330	0.2894	0.0878	0.3288
000288	L	0.383320	0.394854	0.352041	0.1602	0.2575	0.1480	0.0440	0.2826	0.1011	0.3388
000289	T	0.408723	0.392488	0.354906	0.1732	0.2575	0.1500	0.0490	0.2895	0.1025	0.3472
000290	R	0.404437	0.404044	0.359543	0.1998	0.2034	0.1590	0.0560	0.2883	0.1031	0.3514
000291	S	0.341018	0.407769	0.364316	0.2602	0.2783	0.1520	0.0550	0.3006	0.0831	0.3551
000292	M	0.303391	0.385379	0.367665	0.1805	0.1852	0.1330	0.0400	0.2592	0.0976	0.3605
000293	Q	0.307821	0.393435	0.372107	0.2483	0.1702	0.1210	0.0320	0.2689	0.0997	0.3493
000294	V	0.342983	0.393364	0.377322	0.1698	0.1791	0.1170	0.0290	0.2633	0.1107	0.3397
000295	V	0.330203	0.397449	0.381098	0.1602	0.2328	0.1130	0.0230	0.2691	0.1082	0.3355
000296	P	0.281218	0.405251	0.382073	0.1732	0.2645	0.1080	0.0230	0.2691	0.1054	0.3327
000297	L	0.229333	0.430973	0.382944	0.1958	0.2884	0.1170	0.0270	0.2741	0.1075	0.3299
000298	D	0.185477	0.422061	0.383145	0.2167	0.1914	0.1230	0.0310	0.2536	0.1096	0.3324
000299	K	0.169081	0.410602	0.385861	0.3053	0.1881	0.1290	0.0330	0.2647	0.1088	0.3297
000300	Q	0.149494	0.381786	0.389615	0.2167	0.1349	0.1330	0.0340	0.2342	0.1108	0.3259
000301	I	0.131053	0.377696	0.394091	0.1456	0.1251	0.1340	0.0340	0.2178	0.1191	0.3231
000302	T	0.094408	0.392085	0.397299	0.0965	0.1449	0.1360	0.0440	0.2102	0.1318	0.3267
000303	I	0.045248	0.412127	0.398160	0.1117	0.1115	0.1560	0.0480	0.2058	0.1447	0.3306
000304	I	0.053747	0.409605	0.399884	0.1266	0.1162	0.1760	0.0430	0.2136	0.1397	0.3425
000305	D	0.066815	0.439884	0.402123	0.1178	0.1583	0.1810	0.0450	0.2277	0.1417	0.3522
000306	S	0.082979	0.437440	0.407334	0.1698	0.2094	0.1990	0.0550	0.2510	0.1281	0.3540
000307	P	0.097161	0.444653	0.414357	0.1456	0.1823	0.2320	0.0830	0.2527	0.1317	0.3545
000308	S	0.107500	0.464258	0.422900	0.2167	0.2258	0.2630	0.1010	0.2834	0.1233	0.3526
000309	F	0.114448	0.474676	0.432939	0.1958	0.1476	0.2840	0.0960	0.2749	0.1373	0.3494
000310	I	0.139477	0.497875	0.444267	0.1635	0.1251	0.2970	0.0890	0.2779	0.1483	0.3428
000311	V	0.211110	0.548427	0.455881	0.1018	0.0749	0.2900	0.0810	0.2804	0.1740	0.3387
000312	S	0.298211	0.591262	0.465449	0.1322	0.1251	0.2930	0.0750	0.3175	0.1679	0.3377
000313	P	0.374577	0.620308	0.471664	0.0832	0.1206	0.3290	0.0850	0.3332	0.1875	0.3353
000314	L	0.402542	0.621566	0.478593	0.1349	0.2064	0.3920	0.0930	0.3727	0.1626	0.3303
000315	N	0.427565	0.631793	0.487725	0.1998	0.2541	0.3740	0.0990	0.3957	0.1438	0.3251
000316	S	0.518746	0.641721	0.501293	0.2167	0.2399	0.3830	0.0820	0.4169	0.1531	0.3190
000317	S	0.611654	0.660332	0.514255	0.1805	0.1643	0.4320	0.0620	0.4271	0.1941	0.3154
000318	S	0.705746	0.677312	0.524031	0.1566	0.1554	0.4460	0.0830	0.4441	0.2218	0.3061
000319	A	0.783472	0.682648	0.529181	0.0935	0.1137	0.5230	0.0990	0.4543	0.2636	0.2985
000320	L	0.802763	0.680101	0.531607	0.1667	0.1373	0.5690	0.0810	0.4813	0.2485	0.2917
000321	A	0.810613	0.667787	0.532813	0.1732	0.2034	0.5210	0.0630	0.4849	0.2308	0.2840
000322	L	0.818686	0.643090	0.530786	0.1667	0.2884	0.4870	0.0390	0.4891	0.2154	0.2768
000323	R	0.870365	0.600904	0.525959	0.1667	0.2541	0.4650	0.0540	0.4805	0.2304	0.2663
000324	S	0.924282	0.574391	0.517589	0.1667	0.2436	0.4390	0.0880	0.4775	0.2461	0.2557
000325	P	0.910080	0.542468	0.509792	0.2041	0.2951	0.4290	0.1130	0.4818	0.2246	0.2473
000326	A	0.888198	0.544180	0.502183	0.2122	0.2541	0.4370	0.1050	0.4730	0.2219	0.2361
000327	S	0.871387	0.508765	0.497295	0.1766	0.2541	0.4290	0.0990	0.4561	0.2223	0.2265
000328	I	0.856690	0.498347	0.490428	0.1495	0.2292	0.4680	0.1060	0.4488	0.2268	0.2175
000329	E	0.856252	0.520466	0.481984	0.1532	0.1583	0.4690	0.1130	0.4399	0.2394	0.2176
000330	V	0.851434	0.536822	0.468914	0.1532	0.1251	0.4910	0.1210	0.4378	0.2461	0.2163
000331	V	0.844952	0.538098	0.454514	0.1532	0.1823	0.4560	0.1320	0.4381	0.2319	0.2201
000332	K	0.834612	0.522506	0.439621	0.1178	0.2164	0.4370	0.1340	0.4280	0.2293	0.2303
000333	P	0.827963	0.507912	0.424195	0.1766	0.2680	0.4290	0.1160	0.4390	0.2059	0.2392
000334	M	0.823461	0.480916	0.408563	0.1766	0.2783	0.4550	0.1070	0.4372	0.2022	0.2476
000335	E	0.827032	0.448819	0.392990	0.1456	0.2503	0.4150	0.1120	0.4134	0.2126	0.2539
000336	A	0.811417	0.429645	0.379761	0.1322	0.2328	0.3790	0.1130	0.3942	0.2123	0.2591
000337	A	0.784321	0.423777	0.366815	0.1322	0.2752	0.3470	0.1150	0.3881	0.1994	0.2684
000338	S	0.729480	0.414789	0.352087	0.1322	0.2164	0.3030	0.1100	0.3579	0.1895	0.2769
000339	A	0.707968	0.408399	0.333939	0.2122	0.2364	0.3280	0.1320	0.3712	0.1641	0.2834
000340	I	0.667587	0.416927	0.313746	0.1380	0.1528	0.3260	0.1340	0.3358	0.1779	0.2861
000341	L	0.622920	0.407646	0.292731	0.1380	0.2129	0.2900	0.1390	0.3274	0.1556	0.2924
000342	S	0.576072	0.382866	0.272475	0.1349	0.1881	0.2170	0.0990	0.2953	0.1474	0.2940
000343	Q	0.537739	0.375100	0.254209	0.1349	0.1969	0.1980	0.0810	0.2829	0.1358	0.2925
000344	A	0.473627	0.341578	0.238453	0.0701	0.1251	0.1780	0.0640	0.2377	0.1359	0.2932
000345	D	0.424215	0.301357	0.223183	0.0909	0.1731	0.1460	0.0450	0.2265	0.1099	0.2965
000346	A	0.380552	0.269448	0.207522	0.0542	0.1611	0.1210	0.0280	0.1989	0.1053	0.2989
000347	R	0.391892	0.244411	0.189548	0.0858	0.1162	0.0950	0.0230	0.1871	0.1072	0.3024
000348	Q	0.372901	0.206717	0.172488	0.1060	0.1424	0.0810	0.0140	0.1803	0.0954	0.2997
000349	V	0.371081	0.186061	0.158405	0.0621	0.1528	0.0720	0.0140	0.1671	0.1019	0.2979
000350	V	0.338452	0.179276	0.148450	0.0813	0.1759	0.0650	0.0130	0.1648	0.0891	0.2978
000351	L	0.296599	0.170534	0.139350	0.1349	0.1791	0.0610	0.0130	0.1636	0.0706	0.2987
000352	K	0.246778	0.167731	0.130503	0.2080	0.2680	0.0580	0.0150	0.1798	0.0714	0.2967
000353	Y	0.221303	0.166791	0.123107	0.1416	0.1759	0.0810	0.0250	0.1517	0.0438	0.2933
000354	T	0.199435	0.178265	0.118391	0.1416	0.0985	0.0890	0.0280	0.1375	0.0404	0.2955
000355	V	0.178321	0.181664	0.114543	0.1117	0.1206	0.0810	0.0250	0.1313	0.0366	0.2994
000356	P	0.122865	0.184314	0.109385	0.0567	0.0765	0.0700	0.0220	0.1034	0.0427	0.3028
000357	G	0.068365	0.189062	0.103049	0.0771	0.0568	0.0760	0.0260	0.0951	0.0443	0.3078
000358	Y	0.023915	0.196387	0.095019	0.0490	0.0454	0.0820	0.0290	0.0820	0.0564	0.3139
000359	R	0.024763	0.188499	0.087931	0.0286	0.0454	0.0810	0.0330	0.0760	0.0557	0.3250
000360	N	0.034004	0.186538	0.082746	0.0376	0.0704	0.0750	0.0330	0.0810	0.0506	0.3343
000361	S	0.043140	0.187002	0.080814	0.0607	0.1048	0.0630	0.0280	0.0899	0.0474	0.3446
000362	L	0.053520	0.158149	0.080039	0.1018	0.1611	0.0590	0.0240	0.1022	0.0435	0.3542
000363	E	0.061162	0.136550	0.079764	0.0991	0.1349	0.0480	0.0170	0.0932	0.0339	0.3645
000364	F	0.068809	0.128886	0.079659	0.1602	0.2129	0.0470	0.0140	0.1163	0.0574	0.3764
000365	F	0.074774	0.124490	0.079945	0.1266	0.2164	0.0450	0.0130	0.1113	0.0549	0.3803
000366	T	0.075024	0.121499	0.079973	0.1766	0.2817	0.0510	0.0110	0.1310	0.0785	0.3763
000367	V	0.069111	0.134069	0.079502	0.1566	0.2575	0.0810	0.0200	0.1296	0.0654	0.3704
000368	L	0.059655	0.166082	0.078560	0.1566	0.2575	0.1400	0.0640	0.1431	0.0645	0.3638
000369	A	0.049760	0.197862	0.077533	0.2292	0.2680	0.2040	0.1150	0.1710	0.0796	0.3531
000370	Q	0.041218	0.255343	0.076978	0.2209	0.2884	0.2030	0.0800	0.1810	0.0908	0.3402
000371	R	0.036770	0.311424	0.076568	0.1416	0.2884	0.1940	0.0630	0.1748	0.1015	0.3309
000372	R	0.088957	0.366441	0.076001	0.1602	0.2292	0.2390	0.0700	0.1933	0.0993	0.3201
000373	G	0.141785	0.427069	0.074588	0.2333	0.3215	0.2800	0.1110	0.2463	0.1155	0.3096
000374	M	0.193566	0.490623	0.072357	0.1667	0.3087	0.2670	0.1010	0.2498	0.1312	0.2989
000375	H	0.250107	0.537357	0.069771	0.2602	0.3840	0.2560	0.0910	0.2930	0.1426	0.2895
000376	Q	0.288598	0.576441	0.067166	0.3491	0.4652	0.2630	0.0850	0.3349	0.1605	0.2830
000377	K	0.308934	0.604164	0.064861	0.3184	0.4541	0.2850	0.0860	0.3392	0.1648	0.2817
000378	G	0.326595	0.609415	0.062748	0.3630	0.4476	0.3110	0.0860	0.3533	0.1641	0.2814
000379	G	0.327715	0.620944	0.061070	0.4420	0.4541	0.3130	0.1050	0.3698	0.1711	0.2831
000380	I	0.321410	0.583593	0.059287	0.4116	0.3910	0.3090	0.0960	0.3460	0.1565	0.2897
000381	P	0.262058	0.510146	0.057280	0.3491	0.3807	0.2710	0.0840	0.3050	0.1379	0.3003
000382	N	0.202582	0.431620	0.055100	0.2700	0.3910	0.2310	0.0520	0.2636	0.1243	0.3115
000383	V	0.145731	0.372149	0.053581	0.2748	0.2988	0.1680	0.0460	0.2188	0.1067	0.3249
000384	E	0.091202	0.311076	0.053189	0.2865	0.3019	0.1520	0.0490	0.1993	0.1048	0.3403
000385	G	0.052305	0.248665	0.053597	0.2432	0.3392	0.1390	0.0440	0.1793	0.1065	0.3559
000386	A	0.031808	0.210375	0.055131	0.2531	0.3117	0.1150	0.0350	0.1629	0.1030	0.3707
000387	A	0.012496	0.189916	0.057545	0.2432	0.3019	0.1000	0.0220	0.1509	0.1027	0.3861
000388	K	0.009571	0.158169	0.061099	0.2167	0.2364	0.0980	0.0260	0.1300	0.0815	0.3990
000389	L	0.009019	0.150714	0.064713	0.2122	0.2129	0.0920	0.0290	0.1236	0.0754	0.4149
000390	L	0.008496	0.163340	0.068135	0.1566	0.1476	0.0770	0.0210	0.1035	0.0567	0.4278
000391	W	0.007460	0.165068	0.070998	0.2041	0.1501	0.0710	0.0200	0.1114	0.0671	0.4333
000392	S	0.006506	0.166431	0.073455	0.1150	0.0948	0.0640	0.0170	0.0867	0.0489	0.4328
000393	E	0.003231	0.167698	0.075850	0.0621	0.0909	0.0660	0.0210	0.0777	0.0486	0.4301
000394	W	0.001634	0.145481	0.078333	0.0701	0.1501	0.0720	0.0270	0.0862	0.0505	0.4279
000395	T	0.000228	0.131276	0.081636	0.0587	0.1611	0.0560	0.0260	0.0814	0.0526	0.4293
000396	G	0.000083	0.122370	0.085773	0.0643	0.1643	0.0520	0.0280	0.0814	0.0522	0.4317
000397	A	0.000196	0.132461	0.091411	0.0858	0.1852	0.0490	0.0250	0.0907	0.0586	0.4334
000398	S	0.004977	0.131500	0.097018	0.1018	0.1323	0.0530	0.0180	0.0868	0.0452	0.4295
000399	L	0.013094	0.140163	0.102762	0.0991	0.1399	0.0560	0.0150	0.0918	0.0453	0.4305
000400	A	0.015511	0.145401	0.108047	0.0832	0.2258	0.0580	0.0150	0.1059	0.0670	0.4272
000401	Y	0.015807	0.149188	0.113350	0.1150	0.3249	0.0580	0.0130	0.1294	0.0975	0.4224
000402	Y	0.016099	0.157662	0.118399	0.1921	0.4476	0.0810	0.0220	0.1688	0.1366	0.4196
000403	C	0.016166	0.194689	0.123023	0.2080	0.3740	0.1040	0.0350	0.1699	0.1110	0.4193
000404	H	0.016318	0.233852	0.127622	0.2122	0.2752	0.1220	0.0380	0.1646	0.0861	0.4153
000405	P	0.016340	0.284270	0.131748	0.2080	0.3774	0.1520	0.0440	0.1950	0.1148	0.4132
000406	P	0.016274	0.320045	0.135637	0.1456	0.3872	0.1760	0.0650	0.1968	0.1230	0.4124
000407	T	0.011522	0.350679	0.139596	0.1456	0.3840	0.2070	0.0810	0.2063	0.1281	0.4123
000408	S	0.003751	0.385441	0.143877	0.1805	0.3356	0.2580	0.1010	0.2178	0.1267	0.4120
000409	W	0.004557	0.427473	0.149154	0.1766	0.2884	0.2520	0.0970	0.2163	0.1304	0.4132
000410	T	0.007206	0.453274	0.155269	0.1805	0.3053	0.1710	0.0700	0.2121	0.1383	0.4099
000411	P	0.018554	0.441329	0.160733	0.1566	0.3392	0.1340	0.0540	0.2084	0.1402	0.4090
000412	P	0.023853	0.427849	0.164205	0.1805	0.3948	0.0980	0.0340	0.2148	0.1481	0.4106
000413	P	0.023794	0.397220	0.165090	0.2865	0.4619	0.0990	0.0320	0.2388	0.1573	0.4135
000414	Y	0.023856	0.305655	0.166047	0.2963	0.5254	0.0920	0.0270	0.2349	0.1647	0.4161
000415	F	0.023839	0.274794	0.168846	0.3146	0.5211	0.0720	0.0190	0.2292	0.1658	0.4199
000416	N	0.060916	0.268595	0.172309	0.2963	0.4017	0.0750	0.0250	0.2124	0.1221	0.4194
000417	E	0.106757	0.268510	0.174553	0.2820	0.3872	0.0840	0.0330	0.2171	0.1061	0.4217
000418	S	0.133278	0.257688	0.173224	0.2122	0.3182	0.0960	0.0380	0.1985	0.0746	0.4219
000419	I	0.152654	0.259005	0.171414	0.2167	0.3356	0.1170	0.0560	0.2087	0.0727	0.4240
000420	V	0.145981	0.244604	0.171532	0.2333	0.4409	0.1140	0.0590	0.2251	0.1067	0.4252
000421	V	0.183325	0.243218	0.175298	0.2483	0.3704	0.1180	0.0580	0.2230	0.0793	0.4273
000422	D	0.251233	0.269839	0.180632	0.2432	0.3599	0.1220	0.0520	0.2378	0.0740	0.4285
000423	M	0.319439	0.295644	0.185317	0.1566	0.3215	0.1250	0.0490	0.2338	0.0807	0.4286
000424	K	0.382397	0.314251	0.188595	0.1532	0.3019	0.1190	0.0490	0.2432	0.0952	0.4266
000425	S	0.408284	0.340651	0.191846	0.2292	0.3872	0.1190	0.0500	0.2794	0.1063	0.4254
000426	G	0.425089	0.364456	0.196807	0.3053	0.4582	0.1450	0.0570	0.3157	0.1141	0.4246
000427	F	0.480274	0.388463	0.203118	0.3053	0.4541	0.2130	0.0810	0.3408	0.1088	0.4258
000428	N	0.544349	0.438034	0.209235	0.2558	0.4369	0.2490	0.0820	0.3556	0.1236	0.4245
000429	L	0.614572	0.520088	0.214482	0.2786	0.3740	0.2720	0.0750	0.3789	0.1438	0.4249
000430	E	0.619092	0.571055	0.219309	0.3456	0.4330	0.2240	0.0600	0.4020	0.1554	0.4254
000431	E	0.626995	0.584301	0.224969	0.3096	0.4685	0.2700	0.0680	0.4140	0.1553	0.4255
000432	L	0.636935	0.571811	0.232172	0.3668	0.4582	0.3530	0.0880	0.4365	0.1370	0.4256
000433	E	0.646353	0.573057	0.239490	0.3184	0.4292	0.3550	0.0900	0.4269	0.1424	0.4261
000434	K	0.657935	0.557047	0.246760	0.2748	0.4582	0.3250	0.0780	0.4199	0.1511	0.4266
000435	N	0.669764	0.524606	0.253001	0.2748	0.5017	0.2510	0.0620	0.4126	0.1618	0.4289
000436	N	0.664082	0.519423	0.260027	0.2786	0.5055	0.1990	0.0650	0.4045	0.1681	0.4305
000437	A	0.616962	0.495910	0.267384	0.3146	0.4369	0.1810	0.0600	0.3855	0.1467	0.4323
000438	Q	0.559330	0.472124	0.274119	0.3992	0.5055	0.1960	0.0630	0.4011	0.1285	0.4337
000439	S	0.529651	0.464689	0.279519	0.3263	0.5055	0.1990	0.0700	0.3841	0.1231	0.4328
000440	I	0.455792	0.431166	0.283282	0.3668	0.5758	0.1810	0.0750	0.3824	0.1263	0.4336
000441	R	0.379113	0.418668	0.286491	0.3535	0.4864	0.1590	0.0780	0.3472	0.1037	0.4359
000442	A	0.309100	0.431260	0.292085	0.3491	0.4087	0.1540	0.0660	0.3241	0.0907	0.4401
000443	I	0.238289	0.425695	0.301227	0.3535	0.3872	0.1480	0.0540	0.3091	0.0936	0.4457
000444	K	0.167900	0.418699	0.314019	0.2786	0.3807	0.1360	0.0430	0.2826	0.1032	0.4539
000445	G	0.090746	0.402328	0.328202	0.2167	0.3872	0.1310	0.0350	0.2594	0.1213	0.4653
000446	P	0.052852	0.394742	0.341838	0.2292	0.3774	0.1340	0.0340	0.2549	0.1280	0.4787
000447	H	0.037668	0.377753	0.357461	0.2333	0.3704	0.1430	0.0330	0.2532	0.1286	0.4963
000448	L	0.033002	0.373597	0.376512	0.2748	0.3286	0.1480	0.0330	0.2557	0.1261	0.5157
000449	A	0.037898	0.381025	0.400906	0.2700	0.3215	0.1540	0.0350	0.2609	0.1284	0.5371
000450	N	0.043281	0.424420	0.426375	0.2041	0.3356	0.1600	0.0340	0.2656	0.1416	0.5587
000451	S	0.046945	0.459697	0.449756	0.3005	0.4051	0.1660	0.0390	0.3046	0.1533	0.5786
000452	I	0.084609	0.499287	0.470043	0.3053	0.3494	0.1770	0.0410	0.3143	0.1479	0.6029
000453	L	0.090612	0.519213	0.489506	0.3491	0.3087	0.1880	0.0400	0.3242	0.1524	0.6250
000454	F	0.140325	0.540372	0.510720	0.3806	0.3910	0.2030	0.0450	0.3610	0.1469	0.6457
000455	Q	0.191471	0.562556	0.534456	0.3263	0.4186	0.2090	0.0510	0.3737	0.1450	0.6566
000456	S	0.230865	0.579749	0.558529	0.3263	0.4051	0.2370	0.0490	0.3896	0.1399	0.6632
000457	S	0.292922	0.598712	0.580355	0.2963	0.3872	0.2610	0.0710	0.4028	0.1376	0.6641
000458	G	0.364128	0.624563	0.599983	0.2786	0.3249	0.3090	0.0890	0.4168	0.1406	0.6623
000459	L	0.434946	0.639749	0.618912	0.3630	0.3910	0.3210	0.1020	0.4614	0.1236	0.6667
000460	T	0.515915	0.662207	0.638877	0.3399	0.4292	0.2870	0.0860	0.4789	0.1409	0.6703
000461	N	0.556432	0.676987	0.659213	0.3535	0.4409	0.2830	0.0820	0.4950	0.1481	0.6751
000462	G	0.635798	0.694209	0.679202	0.3578	0.3807	0.3200	0.0920	0.5114	0.1603	0.6791
000463	I	0.666111	0.718494	0.697554	0.4420	0.4725	0.3540	0.1010	0.5584	0.1411	0.6897
000464	I	0.689518	0.731795	0.715938	0.4600	0.5211	0.3460	0.0970	0.5775	0.1449	0.6928
000465	E	0.741055	0.743650	0.734480	0.5583	0.6136	0.3500	0.1130	0.6235	0.1412	0.6818
000466	E	0.767169	0.764092	0.754270	0.5229	0.5758	0.4200	0.1220	0.6341	0.1357	0.6760
000467	K	0.790269	0.784588	0.773729	0.4918	0.6043	0.5290	0.1150	0.6622	0.1252	0.6645
000468	D	0.802204	0.805331	0.792837	0.4556	0.5901	0.5880	0.1240	0.6724	0.1353	0.6622
000469	I	0.791456	0.819039	0.811783	0.4703	0.5620	0.6230	0.1140	0.6797	0.1355	0.6526
000470	H	0.813645	0.837978	0.830815	0.5084	0.6661	0.6220	0.1180	0.7132	0.1238	0.6176
000471	E	0.822588	0.861447	0.850037	0.4781	0.6851	0.6460	0.1100	0.7239	0.1369	0.5752
000472	E	0.845912	0.879719	0.868780	0.4967	0.6991	0.6830	0.1020	0.7456	0.1361	0.5316
000473	L	0.879611	0.898644	0.885794	0.4967	0.6806	0.7010	0.0840	0.7570	0.1463	0.4862
000474	P	0.895940	0.912845	0.900498	0.5667	0.7799	0.6910	0.0880	0.7912	0.1279	0.4089
000475	K	0.904510	0.925622	0.913118	0.6035	0.8596	0.7020	0.0810	0.8181	0.1220	0.3384
000476	R	0.913112	0.939144	0.923045	0.6174	0.8565	0.7270	0.0650	0.8294	0.1183	0.2947
000477	K	0.933919	0.949806	0.931271	0.6255	0.8198	0.7480	0.0600	0.8346	0.1183	0.2625
000478	E	0.968586	0.959729	0.936898	0.6474	0.8493	0.7770	0.0530	0.8565	0.1153	0.2350
000479	R	0.975405	0.967080	0.940555	0.6124	0.8313	0.8050	0.0550	0.8553	0.1267	0.2042
000480	K	0.987630	0.971836	0.942158	0.6715	0.8942	0.7910	0.0740	0.8764	0.1121	0.1847
000481	Q	0.993119	0.975729	0.943174	0.6715	0.9013	0.8030	0.0850	0.8814	0.1123	0.1861
000482	E	0.993258	0.979218	0.945009	0.6756	0.9013	0.8150	0.0950	0.8850	0.1104	0.1932
000483	E	0.993711	0.983158	0.947326	0.6827	0.8920	0.8270	0.1050	0.8876	0.1077	0.1994
000484	R	0.994997	0.986175	0.949523	0.7418	0.9013	0.8320	0.1120	0.9010	0.0899	0.2012
000485	E	0.995531	0.988374	0.950984	0.7034	0.8894	0.8420	0.1120	0.8949	0.1013	0.2327
000486	D	0.996058	0.989428	0.951564	0.7034	0.9151	0.8590	0.1110	0.9024	0.1004	0.2727
000487	D	0.996196	0.990240	0.951856	0.7458	0.9329	0.8710	0.1100	0.9146	0.0862	0.3060
000488	K	0.996332	0.990999	0.952096	0.7817	0.9151	0.8820	0.1030	0.9196	0.0736	0.3304
000489	D	0.996439	0.991249	0.952571	0.7817	0.9106	0.8840	0.1020	0.9195	0.0736	0.3809
000490	S	0.996557	0.991290	0.952967	0.7817	0.9287	0.8810	0.1070	0.9220	0.0739	0.4347
000491	D	0.997852	0.991122	0.953181	0.8242	0.9415	0.8810	0.1080	0.9315	0.0613	0.4820
000492	Q	0.998806	0.990807	0.952803	0.8283	0.9362	0.8890	0.1050	0.9326	0.0591	0.5090
000493	E	0.998760	0.990241	0.951842	0.8200	0.9249	0.8910	0.1060	0.9294	0.0612	0.5430
000494	T	0.998558	0.990478	0.950331	0.8118	0.9168	0.8910	0.1110	0.9265	0.0637	0.5778
000495	V	0.998191	0.990444	0.948923	0.8350	0.9168	0.8970	0.1080	0.9310	0.0562	0.6204
000496	D	0.997603	0.989225	0.947376	0.8350	0.8421	0.9070	0.0950	0.9198	0.0646	0.6587
000497	E	0.997367	0.987162	0.946087	0.8242	0.8125	0.9140	0.0870	0.9136	0.0727	0.7190
000498	E	0.996211	0.985181	0.944571	0.7724	0.7843	0.9250	0.0790	0.9013	0.0902	0.7829
000499	V	0.995128	0.982065	0.943360	0.7912	0.8198	0.9310	0.0750	0.9103	0.0777	0.8429
000500	D	0.994019	0.977076	0.942210	0.7644	0.8235	0.9290	0.0790	0.9051	0.0832	0.8728
000501	E	0.992951	0.971846	0.941520	0.7817	0.8343	0.9290	0.0830	0.9085	0.0755	0.8962
000502	N	0.991846	0.967224	0.941071	0.7951	0.8235	0.9370	0.0710	0.9093	0.0734	0.9139
000503	S	0.989152	0.962856	0.940614	0.7724	0.8279	0.9380	0.0700	0.9051	0.0778	0.9320
000504	S	0.985978	0.958710	0.940722	0.7644	0.7951	0.9300	0.0780	0.8959	0.0844	0.9453
000505	G	0.982970	0.955355	0.941184	0.7912	0.7209	0.9190	0.0940	0.8850	0.0953	0.9565
000506	M	0.980219	0.950058	0.940798	0.8036	0.7799	0.9160	0.0910	0.8951	0.0758	0.9666
000507	F	0.974059	0.943695	0.939880	0.7418	0.7843	0.9170	0.0880	0.8834	0.0876	0.9691
000508	A	0.964352	0.939968	0.937003	0.7317	0.7843	0.9070	0.0960	0.8775	0.0874	0.9651
000509	A	0.955071	0.933037	0.933605	0.7418	0.7672	0.9120	0.0890	0.8737	0.0855	0.9575
000510	E	0.948335	0.926324	0.928871	0.7912	0.8235	0.9100	0.0870	0.8881	0.0589	0.9443
000511	E	0.941043	0.919293	0.925272	0.7724	0.7951	0.9180	0.0790	0.8785	0.0677	0.9295
000512	T	0.936652	0.912494	0.922497	0.7540	0.7799	0.9140	0.0840	0.8700	0.0737	0.9146
000513	G	0.932098	0.905548	0.919561	0.7317	0.7916	0.9030	0.0970	0.8640	0.0750	0.9004
000514	E	0.924080	0.893239	0.915993	0.7342	0.8013	0.9040	0.0940	0.8621	0.0701	0.8832
000515	A	0.916203	0.884122	0.911035	0.7540	0.8013	0.9130	0.0800	0.8633	0.0630	0.8640
000516	L	0.912641	0.871607	0.904301	0.7540	0.8013	0.9090	0.0800	0.8589	0.0605	0.8355
000517	S	0.908896	0.857197	0.895190	0.7458	0.7982	0.8750	0.1140	0.8467	0.0572	0.7821
000518	E	0.901519	0.842321	0.884779	0.7724	0.8765	0.8580	0.1250	0.8559	0.0418	0.7255
000519	E	0.893141	0.829720	0.872982	0.7573	0.8198	0.8510	0.1260	0.8373	0.0435	0.6776
000520	T	0.884179	0.815054	0.860427	0.7644	0.7843	0.8590	0.1090	0.8279	0.0434	0.6485
000521	T	0.869563	0.801539	0.848091	0.6827	0.6991	0.8670	0.1060	0.7946	0.0768	0.6430
000522	A	0.853107	0.790852	0.836648	0.6079	0.6948	0.8480	0.1290	0.7719	0.0911	0.6523
000523	G	0.845905	0.773089	0.824772	0.5549	0.6620	0.8340	0.1390	0.7490	0.1066	0.6538
000524	E	0.839280	0.751351	0.810390	0.5667	0.5854	0.8290	0.1450	0.7303	0.1127	0.6405
000525	Q	0.831854	0.720716	0.794121	0.5043	0.5017	0.8320	0.1550	0.6975	0.1425	0.6309
000526	S	0.823579	0.686173	0.776403	0.4651	0.5382	0.8110	0.1620	0.6834	0.1374	0.6306
000527	T	0.818634	0.637279	0.759100	0.4513	0.6375	0.7550	0.1680	0.6764	0.1204	0.6419
000528	R	0.786160	0.579778	0.742295	0.4781	0.6576	0.7030	0.1840	0.6579	0.1033	0.6728
000529	S	0.753398	0.516097	0.725617	0.4749	0.6482	0.6430	0.1720	0.6268	0.1015	0.7178
000530	F	0.682218	0.506441	0.708191	0.4556	0.6043	0.6100	0.1600	0.5944	0.0894	0.7593
000531	I	0.604512	0.474627	0.689679	0.4703	0.5342	0.5810	0.1800	0.5591	0.0767	0.7812
000532	L	0.557719	0.441819	0.670615	0.4458	0.5419	0.5390	0.1980	0.5328	0.0770	0.7885
000533	D	0.513313	0.446057	0.651704	0.4037	0.4801	0.4790	0.2110	0.4956	0.0776	0.7828
000534	K	0.475463	0.422025	0.635833	0.4116	0.4766	0.4630	0.2330	0.4808	0.0737	0.7813
000535	I	0.432735	0.405799	0.622380	0.3005	0.4619	0.5680	0.2340	0.4653	0.1057	0.7938
000536	I	0.447172	0.411516	0.610937	0.2865	0.4619	0.5700	0.1880	0.4647	0.1060	0.7979
000537	E	0.492898	0.429196	0.600220	0.2820	0.4087	0.5050	0.1820	0.4530	0.0981	0.7905
000538	E	0.543094	0.453109	0.589853	0.3005	0.3631	0.6420	0.1480	0.4820	0.1218	0.7819
000539	D	0.635005	0.449988	0.580981	0.2558	0.3704	0.8000	0.1600	0.5153	0.1789	0.7695
000540	D	0.688425	0.441696	0.571966	0.1958	0.3494	0.8610	0.1130	0.5180	0.2189	0.7522
000541	A	0.671524	0.438787	0.563884	0.3053	0.4051	0.7660	0.1040	0.5251	0.1587	0.7321
000542	Y	0.631434	0.456651	0.553816	0.4037	0.4441	0.7910	0.1580	0.5468	0.1330	0.7197
000543	D	0.581610	0.477512	0.541573	0.5008	0.4864	0.8110	0.1100	0.5665	0.1150	0.7067
000544	F	0.546210	0.521824	0.527803	0.5253	0.4507	0.8080	0.1540	0.5633	0.1134	0.6989
000545	S	0.445429	0.621043	0.512928	0.6035	0.4541	0.7570	0.1640	0.5657	0.1086	0.6875
000546	T	0.081942	0.669237	0.498360	0.6906	0.5139	0.8510	0.1580	0.5508	0.2407	0.6680
000547	D	0.045907	0.648876	0.485137	0.7869	0.5901	0.8740	0.1300	0.5719	0.2672	0.6543
000548	Y	0.091034	0.721632	0.474234	0.8001	0.5296	0.9000	0.0630	0.5860	0.2656	0.6453
000549	V	0.018233	0.772889	0.469533	0.8158	0.4652	0.8930	0.1010	0.5724	0.2975	0.6289